(06:12:23)
2023-12-06_14:18:00 - 0
2023-12-06_14:18:00 - 0
2023-12-06_14:18:00 - 0
2023-12-06_14:18:00 - 0
2023-12-06_14:18:00 - 0
2023-12-06_14:18:00 - 0
2023-12-06_14:18:00 - 0
2023-12-06_14:18:00 - 0
2023-12-06_14:18:00 - 0
2023-12-06_14:18:00 - 0
2023-12-06_14:18:00 - 0
2023-12-06_14:18:00 - 0
2023-12-06_14:18:00 - 0
2023-12-06_14:18:00 - 0
2023-12-06_14:18:00 - 0
2023-12-06_14:18:00 - 53
2023-12-06_14:18:00 - 53
2023-12-06_14:18:00 - 53
2023-12-06_14:18:00 - 54
2023-12-06_14:18:00 - 0
2023-12-06_14:18:00 - 70
2023-12-06_14:18:00 - 70
2023-12-06_14:18:00 - 54
2023-12-06_14:18:00 - 0

2023-12-06_14:18:00 - 53
2023-12-06_14:18:00 - 0
2023-12-06_14:18:00 - 55
2023-12-06_14:18:00 - 69
2023-12-06_14:18:00 - 78
2023-12-06_14:18:00 - 53
2023-12-06_14:18:00 - 0

2023-12-06_14:18:00 - 78
2023-12-06_14:18:00 - 54
2023-12-06_14:18:00 - 70
2023-12-06_14:18:00 - 70
2023-12-06_14:18:00 - 0
2023-12-06_14:18:00 - 55
2023-12-06_14:18:00 - 59
2023-12-06_14:18:00 - 69
2023-12-06_14:18:00 - 77
2023-12-06_14:18:00 - 70
2023-12-06_14:18:00 - 53
2023-12-06_14:18:00 - 78
2023-12-06_14:18:00 - 70
2023-12-06_14:18:00 - 55
2023-12-06_14:18:00 - 0
2023-12-06_14:18:00 - 77
2023-12-06_14:18:00 - 70
2023-12-06_14:18:00 - 54
2023-12-06_14:18:00 - 54
2023-12-06_14:18:00 - 0
2023-12-06_14:18:00 - 70
2023-12-06_14:18:00 - 79
2023-12-06_14:18:00 - 70
2023-12-06_14:18:00 - 54
2023-12-06_14:18:00 - 75
2023-12-06_14:18:00 - 54
2023-12-06_14:18:00 - 75
2023-12-06_14:18:00 - 70
2023-12-06_14:18:00 - 77
2023-12-06_14:18:00 - 0
2023-12-06_14:18:00 - 79
2023-12-06_14:18:00 - 75
2023-12-06_14:18:00 - 77
2023-12-06_14:18:00 - 53
2023-12-06_14:18:00 - 0
2023-12-06_14:18:00 - 54
2023-12-06_14:18:00 - 70
2023-12-06_14:18:00 - 79
2023-12-06_14:18:00 - 54
2023-12-06_14:18:00 - 0
2023-12-06_14:18:00 - 0
2023-12-06_14:18:00 - 0
2023-12-06_14:18:00 - 0
2023-12-06_14:18:00 - 73
2023-12-06_14:18:00 - 0
2023-12-06_14:18:00 - 0
2023-12-06_14:18:00 - 0
2023-12-06_14:18:00 - 0
2023-12-06_14:18:00 - 0
2023-12-06_14:18:00 - 75
2023-12-06_14:18:00 - 0
2023-12-06_14:18:00 - 74
2023-12-06_14:18:00 - 75
2023-12-06_14:18:00 - 0
2023-12-06_14:18:00 - 74
2023-12-06_14:18:00 - 0
2023-12-06_14:18:00 - 0
2023-12-06_14:18:00 - 0
2023-12-06_14:18:00 - 74
2023-12-06_14:18:00 - 0
2023-12-06_14:18:00 - 0
2023-12-06_14:18:00 - 0
2023-12-06_14:18:00 - 0
2023-12-06_14:18:00 - 0
2023-12-06_14:18:00 - 0
2023-12-06_14:18:00 - 0
2023-12-06_14:18:00 - 0
2023-12-06_14:18:00 - 0
2023-12-06_14:18:00 - 0
2023-12-06_14:18:00 - 0
2023-12-06_14:18:00 - 74
2023-12-06_14:18:00 - 0
2023-12-06_14:18:00 - 73
2023-12-06_14:26:17 - 0
2023-12-06_14:26:18 - 0
2023-12-06_14:26:18 - 0
2023-12-06_14:26:19 - 0
2023-12-06_14:26:19 - 0
2023-12-06_14:26:20 - 0
2023-12-06_14:26:20 - 0
2023-12-06_14:26:21 - 0
2023-12-06_14:26:21 - 0
2023-12-06_15:02:19 - 0
2023-12-06_15:02:20 - 0
2023-12-06_15:02:20 - 0
2023-12-06_15:02:21 - 0
2023-12-06_15:02:21 - 0
2023-12-06_15:02:22 - 0
2023-12-06_15:02:22 - 0
2023-12-06_15:02:23 - 0
2023-12-06_15:02:23 - 0
2023-12-06_15:02:24 - 0
2023-12-06_15:02:24 - 0
2023-12-06_15:02:25 - 0
2023-12-06_15:02:25 - 0
2023-12-06_15:02:26 - 0
2023-12-06_15:02:26 - 0
2023-12-06_15:02:27 - 0
2023-12-06_15:02:27 - 0
2023-12-06_15:02:28 - 0
2023-12-06_15:02:28 - 0
2023-12-06_15:02:29 - 0
2023-12-06_15:02:29 - 0
2023-12-06_15:02:30 - 0
2023-12-06_15:02:30 - 0
2023-12-06_15:02:31 - 0
2023-12-06_15:02:31 - 0
2023-12-06_15:02:32 - 0
2023-12-06_15:02:32 - 0
2023-12-06_15:02:33 - 0
2023-12-06_15:02:33 - 0
2023-12-06_15:02:34 - 0
2023-12-06_15:02:34 - 0
2023-12-06_15:02:35 - 0
2023-12-06_15:02:35 - 0
2023-12-06_15:02:36 - 0
2023-12-06_15:02:36 - 0
2023-12-06_15:02:37 - 0
2023-12-06_15:02:37 - 0
2023-12-06_15:02:38 - 0
2023-12-06_15:02:38 - 0
2023-12-06_15:02:39 - 0
2023-12-06_15:02:39 - 0
2023-12-06_15:02:40 - 0
2023-12-06_15:02:40 - 0
2023-12-06_15:02:41 - 0
2023-12-06_15:02:41 - 0
2023-12-06_15:02:42 - 0
2023-12-06_15:02:42 - 0
2023-12-06_15:02:43 - 0
2023-12-06_15:02:43 - 0
2023-12-06_15:02:44 - 0
2023-12-06_15:02:44 - 0
2023-12-06_15:02:45 - 0
2023-12-06_15:02:45 - 0
2023-12-06_15:02:46 - 0
2023-12-06_15:02:46 - 0
2023-12-06_15:02:47 - 0
2023-12-06_15:02:47 - 0
2023-12-06_15:02:48 - 91
2023-12-06_15:02:48 - 91
2023-12-06_15:02:49 - 91
2023-12-06_15:02:49 - 91
2023-12-06_15:02:50 - 91
2023-12-06_15:02:50 - 91
2023-12-06_15:02:51 - 92
2023-12-06_15:02:51 - 92
2023-12-06_15:02:52 - 92
2023-12-06_15:02:52 - 92
2023-12-06_15:02:53 - 92
2023-12-06_15:02:53 - 92
2023-12-06_15:02:54 - 92
2023-12-06_15:02:54 - 92
2023-12-06_15:02:55 - 92
2023-12-06_15:02:55 - 92
2023-12-06_15:02:56 - 92
2023-12-06_15:02:56 - 92
2023-12-06_15:02:57 - 91
2023-12-06_15:02:57 - 91
2023-12-06_15:02:58 - 91
2023-12-06_15:02:58 - 91
2023-12-06_15:02:59 - 91
2023-12-06_15:02:59 - 91
2023-12-06_15:03:00 - 90
2023-12-06_15:03:00 - 90
2023-12-06_15:03:01 - 90
2023-12-06_15:03:01 - 90
2023-12-06_15:03:02 - 90
2023-12-06_15:03:02 - 90
2023-12-06_15:03:03 - 90
2023-12-06_15:03:03 - 90
2023-12-06_15:03:04 - 91
2023-12-06_15:03:04 - 91
2023-12-06_15:03:05 - 91
2023-12-06_15:03:05 - 91
2023-12-06_15:03:06 - 91
2023-12-06_15:03:06 - 91
2023-12-06_15:03:07 - 0
2023-12-06_15:03:07 - 0
2023-12-06_15:03:08 - 92
2023-12-06_15:03:08 - 92
2023-12-06_15:03:09 - 92
2023-12-06_15:03:09 - 92
2023-12-06_15:03:10 - 92
2023-12-06_15:03:10 - 92
2023-12-06_15:03:11 - 91
2023-12-06_15:03:11 - 91
2023-12-06_15:03:12 - 91
2023-12-06_15:03:12 - 91
2023-12-06_15:03:13 - 90
2023-12-06_15:03:13 - 90
2023-12-06_15:03:14 - 89
2023-12-06_15:03:14 - 89
2023-12-06_15:03:15 - 89
2023-12-06_15:03:15 - 89
2023-12-06_15:03:16 - 88
2023-12-06_15:03:16 - 88
2023-12-06_15:03:17 - 88
2023-12-06_15:03:17 - 88
2023-12-06_15:03:18 - 88
2023-12-06_15:03:18 - 88
2023-12-06_15:04:24 - 91
2023-12-06_15:04:24 - 91
2023-12-06_15:04:24 - 91
2023-12-06_15:04:24 - 91
2023-12-06_15:04:24 - 91
2023-12-06_15:04:24 - 91
2023-12-06_15:04:25 - 90
2023-12-06_15:04:25 - 90
2023-12-06_15:04:25 - 90
2023-12-06_15:04:26 - 89
2023-12-06_15:04:26 - 89
2023-12-06_15:04:26 - 89
2023-12-06_15:04:27 - 89
2023-12-06_15:04:27 - 89
2023-12-06_15:04:27 - 89
2023-12-06_15:04:28 - 91
2023-12-06_15:04:28 - 91
2023-12-06_15:04:28 - 91
2023-12-06_15:04:29 - 91
2023-12-06_15:04:29 - 91
2023-12-06_15:04:29 - 91
2023-12-06_15:06:40 - 92
2023-12-06_15:06:40 - 92
2023-12-06_15:06:40 - 92
2023-12-06_15:06:40 - 92
2023-12-06_15:06:40 - 92
2023-12-06_15:06:40 - 92
2023-12-06_15:06:40 - 92
2023-12-06_15:06:40 - 92
2023-12-06_15:06:41 - 92
2023-12-06_15:06:41 - 92
2023-12-06_15:06:41 - 92
2023-12-06_15:06:41 - 92
2023-12-06_15:06:42 - 92
2023-12-06_15:06:42 - 92
2023-12-06_15:06:42 - 92
2023-12-06_15:06:42 - 92
2023-12-06_15:06:43 - 91
2023-12-06_15:06:43 - 91
2023-12-06_15:06:43 - 91
2023-12-06_15:06:43 - 91
2023-12-06_15:06:44 - 91
2023-12-06_15:06:44 - 91
2023-12-06_15:06:44 - 91
2023-12-06_15:06:44 - 91
2023-12-06_15:06:45 - 90
2023-12-06_15:06:45 - 90
2023-12-06_15:06:45 - 90
2023-12-06_15:06:45 - 90
2023-12-06_15:06:46 - 91
2023-12-06_15:06:46 - 91
2023-12-06_15:06:46 - 91
2023-12-06_15:06:46 - 91
2023-12-06_15:08:21 - 89
2023-12-06_15:08:21 - 89
2023-12-06_15:08:21 - 89
2023-12-06_15:08:21 - 89
2023-12-06_15:08:21 - 89
2023-12-06_15:08:21 - 88
2023-12-06_15:08:21 - 88
2023-12-06_15:08:21 - 88
2023-12-06_15:08:21 - 88
2023-12-06_15:08:21 - 88
2023-12-06_15:08:22 - 89
2023-12-06_15:08:22 - 89
2023-12-06_15:08:22 - 89
2023-12-06_15:08:22 - 89
2023-12-06_15:08:22 - 89
2023-12-06_15:08:23 - 89
2023-12-06_15:08:23 - 89
2023-12-06_15:08:23 - 89
2023-12-06_15:08:23 - 89
2023-12-06_15:08:23 - 89
2023-12-06_15:08:24 - 89
2023-12-06_15:08:24 - 89
2023-12-06_15:08:24 - 89
2023-12-06_15:08:24 - 89
2023-12-06_15:08:24 - 89
2023-12-06_15:08:25 - 89
2023-12-06_15:08:25 - 89
2023-12-06_15:08:25 - 89
2023-12-06_15:08:25 - 89
2023-12-06_15:08:25 - 89
2023-12-06_15:08:26 - 89
2023-12-06_15:08:26 - 89
2023-12-06_15:08:26 - 89
2023-12-06_15:08:26 - 89
2023-12-06_15:08:26 - 89
2023-12-06_15:08:52 - 89
2023-12-06_15:08:52 - 89
2023-12-06_15:08:52 - 89
2023-12-06_15:08:52 - 89
2023-12-06_15:08:52 - 89
2023-12-06_15:08:53 - 87
2023-12-06_15:08:53 - 87
2023-12-06_15:08:53 - 87
2023-12-06_15:08:53 - 87
2023-12-06_15:08:53 - 87
2023-12-06_15:08:53 - 87
2023-12-06_15:08:53 - 87
2023-12-06_15:08:53 - 87
2023-12-06_15:08:53 - 87
2023-12-06_15:08:53 - 87
2023-12-06_15:08:53 - 87
2023-12-06_15:08:54 - 88
2023-12-06_15:08:55 - 88
2023-12-06_15:08:55 - 88
2023-12-06_15:08:55 - 88
2023-12-06_15:08:55 - 88
2023-12-06_15:08:55 - 88
2023-12-06_15:08:55 - 88
2023-12-06_15:08:55 - 88
2023-12-06_15:08:55 - 88
2023-12-06_15:08:55 - 88
2023-12-06_15:08:55 - 88
2023-12-06_15:08:55 - 88
2023-12-06_15:08:56 - 0
2023-12-06_15:08:56 - 0
2023-12-06_15:08:56 - 0
2023-12-06_15:08:56 - 0
2023-12-06_15:08:56 - 0
2023-12-06_15:08:56 - 0
2023-12-06_15:08:57 - 89
2023-12-06_15:08:57 - 89
2023-12-06_15:08:57 - 89
2023-12-06_15:08:57 - 89
2023-12-06_15:08:57 - 89
2023-12-06_15:08:57 - 89
2023-12-06_15:08:58 - 88
2023-12-06_15:08:58 - 88
2023-12-06_15:08:59 - 88
2023-12-06_15:08:59 - 88
2023-12-06_15:08:59 - 88
2023-12-06_15:08:59 - 88
2023-12-06_15:08:59 - 88
2023-12-06_15:09:00 - 88
2023-12-06_15:09:00 - 88
2023-12-06_15:09:00 - 88
2023-12-06_15:09:00 - 88
2023-12-06_15:09:00 - 88
2023-12-06_15:09:11 - 88
2023-12-06_15:09:12 - 0
2023-12-06_15:09:12 - 0
2023-12-06_15:09:12 - 88
2023-12-06_15:09:13 - 88
2023-12-06_15:09:14 - 89
2023-12-06_15:09:14 - 89
2023-12-06_15:09:15 - 88
2023-12-06_15:09:15 - 88
2023-12-06_15:09:16 - 88
2023-12-06_15:09:16 - 88
2023-12-06_15:09:17 - 87
2023-12-06_15:09:17 - 87
2023-12-06_15:09:18 - 87
2023-12-06_15:09:18 - 87
2023-12-06_15:10:31 - 93
2023-12-06_15:10:31 - 93
2023-12-06_15:10:32 - 93
2023-12-06_15:10:32 - 93
2023-12-06_15:10:32 - 93
2023-12-06_15:10:33 - 94
2023-12-06_15:10:33 - 94
2023-12-06_15:10:33 - 94
2023-12-06_15:10:34 - 94
2023-12-06_15:10:34 - 94
2023-12-06_15:10:34 - 94
2023-12-06_15:10:35 - 93
2023-12-06_15:10:35 - 93
2023-12-06_15:10:35 - 93
2023-12-06_15:10:36 - 93
2023-12-06_15:10:36 - 93
2023-12-06_15:10:36 - 93
2023-12-06_15:10:37 - 92
2023-12-06_15:10:37 - 92
2023-12-06_15:10:37 - 92
2023-12-06_15:10:38 - 92
2023-12-06_15:10:38 - 92
2023-12-06_15:10:38 - 92
2023-12-06_15:10:41 - 92
2023-12-06_15:10:41 - 92
2023-12-06_15:10:41 - 92
2023-12-06_15:10:42 - 92
2023-12-06_15:10:42 - 92
2023-12-06_15:10:42 - 92
2023-12-06_15:10:42 - 92
2023-12-06_15:10:43 - 91
2023-12-06_15:10:43 - 91
2023-12-06_15:10:43 - 91
2023-12-06_15:10:43 - 91
2023-12-06_15:10:44 - 91
2023-12-06_15:10:44 - 91
2023-12-06_15:10:44 - 91
2023-12-06_15:10:44 - 91
2023-12-06_15:10:45 - 90
2023-12-06_15:10:45 - 90
2023-12-06_15:10:45 - 90
2023-12-06_15:10:45 - 90
2023-12-06_15:10:46 - 89
2023-12-06_15:10:46 - 89
2023-12-06_15:10:46 - 89
2023-12-06_15:10:46 - 89
2023-12-06_15:10:47 - 88
2023-12-06_15:10:47 - 88
2023-12-06_15:10:47 - 88
2023-12-06_15:10:47 - 88
2023-12-06_15:10:48 - 87
2023-12-06_15:10:48 - 87
2023-12-06_15:10:48 - 87
2023-12-06_15:10:48 - 87
2023-12-06_15:11:32 - 91
2023-12-06_15:11:33 - 91
2023-12-06_15:11:33 - 91
2023-12-06_15:11:33 - 91
2023-12-06_15:11:33 - 91
2023-12-06_15:11:33 - 92
2023-12-06_15:11:33 - 92
2023-12-06_15:11:33 - 92
2023-12-06_15:11:33 - 92
2023-12-06_15:11:33 - 92
2023-12-06_15:11:34 - 92
2023-12-06_15:11:34 - 92
2023-12-06_15:11:34 - 92
2023-12-06_15:11:34 - 92
2023-12-06_15:11:34 - 92
2023-12-06_15:11:35 - 93
2023-12-06_15:11:35 - 93
2023-12-06_15:11:35 - 93
2023-12-06_15:11:35 - 93
2023-12-06_15:11:35 - 93
2023-12-06_15:11:36 - 0
2023-12-06_15:11:36 - 0
2023-12-06_15:11:36 - 0
2023-12-06_15:11:36 - 0
2023-12-06_15:11:36 - 0
2023-12-06_15:11:37 - 0
2023-12-06_15:11:37 - 0
2023-12-06_15:11:37 - 0
2023-12-06_15:11:37 - 0
2023-12-06_15:11:37 - 0
2023-12-06_15:11:38 - 0
2023-12-06_15:11:38 - 0
2023-12-06_15:11:38 - 0
2023-12-06_15:11:38 - 0
2023-12-06_15:11:38 - 0
2023-12-06_15:11:39 - 0
2023-12-06_15:11:39 - 0
2023-12-06_15:11:39 - 0
2023-12-06_15:11:39 - 0
2023-12-06_15:11:39 - 0
2023-12-06_15:13:26 - 0
2023-12-06_15:13:26 - 0
2023-12-06_15:13:26 - 0
2023-12-06_15:13:26 - 0
2023-12-06_15:13:26 - 0
2023-12-06_15:13:26 - 0
2023-12-06_15:13:27 - 0
2023-12-06_15:13:27 - 0
2023-12-06_15:13:27 - 0
2023-12-06_15:13:27 - 0
2023-12-06_15:13:27 - 0
2023-12-06_15:13:27 - 0
2023-12-06_15:13:28 - 90
2023-12-06_15:13:28 - 90
2023-12-06_15:13:28 - 90
2023-12-06_15:13:28 - 90
2023-12-06_15:13:28 - 90
2023-12-06_15:13:28 - 90
2023-12-06_15:13:29 - 92
2023-12-06_15:13:29 - 92
2023-12-06_15:13:29 - 92
2023-12-06_15:13:29 - 92
2023-12-06_15:13:29 - 92
2023-12-06_15:13:29 - 92
2023-12-06_15:13:30 - 91
2023-12-06_15:13:30 - 91
2023-12-06_15:13:30 - 91
2023-12-06_15:13:30 - 91
2023-12-06_15:13:30 - 91
2023-12-06_15:13:30 - 91
2023-12-06_15:13:31 - 93
2023-12-06_15:13:31 - 93
2023-12-06_15:13:31 - 93
2023-12-06_15:13:31 - 93
2023-12-06_15:13:31 - 93
2023-12-06_15:13:31 - 93
2023-12-06_15:13:32 - 0
2023-12-06_15:13:32 - 0
2023-12-06_15:13:32 - 0
2023-12-06_15:13:32 - 0
2023-12-06_15:13:32 - 0
2023-12-06_15:13:32 - 0
2023-12-06_15:13:56 - 89
2023-12-06_15:13:56 - 89
2023-12-06_15:13:56 - 89
2023-12-06_15:13:56 - 89
2023-12-06_15:13:56 - 89
2023-12-06_15:13:56 - 89
2023-12-06_15:13:56 - 89
2023-12-06_15:13:57 - 89
2023-12-06_15:13:57 - 89
2023-12-06_15:13:57 - 89
2023-12-06_15:13:57 - 89
2023-12-06_15:13:57 - 89
2023-12-06_15:13:57 - 89
2023-12-06_15:13:57 - 89
2023-12-06_15:13:58 - 90
2023-12-06_15:13:58 - 90
2023-12-06_15:13:58 - 90
2023-12-06_15:13:58 - 90
2023-12-06_15:13:58 - 90
2023-12-06_15:13:58 - 90
2023-12-06_15:13:58 - 90
2023-12-06_15:13:59 - 90
2023-12-06_15:13:59 - 90
2023-12-06_15:13:59 - 90
2023-12-06_15:13:59 - 90
2023-12-06_15:13:59 - 90
2023-12-06_15:13:59 - 90
2023-12-06_15:13:59 - 90
2023-12-06_15:14:00 - 91
2023-12-06_15:14:00 - 91
2023-12-06_15:14:00 - 91
2023-12-06_15:14:00 - 91
2023-12-06_15:14:00 - 91
2023-12-06_15:14:00 - 91
2023-12-06_15:14:00 - 91
2023-12-06_15:14:01 - 90
2023-12-06_15:14:01 - 90
2023-12-06_15:14:01 - 90
2023-12-06_15:14:01 - 90
2023-12-06_15:14:01 - 90
2023-12-06_15:14:01 - 90
2023-12-06_15:14:01 - 90
2023-12-06_15:14:02 - 90
2023-12-06_15:14:02 - 90
2023-12-06_15:14:02 - 90
2023-12-06_15:14:02 - 90
2023-12-06_15:14:02 - 90
2023-12-06_15:14:02 - 90
2023-12-06_15:14:02 - 90
2023-12-06_15:14:59 - 93
2023-12-06_15:14:59 - 93
2023-12-06_15:14:59 - 93
2023-12-06_15:14:59 - 93
2023-12-06_15:15:00 - 0
2023-12-06_15:15:00 - 0
2023-12-06_15:15:00 - 0
2023-12-06_15:15:00 - 0
2023-12-06_15:15:00 - 0
2023-12-06_15:15:01 - 0
2023-12-06_15:15:01 - 0
2023-12-06_15:15:01 - 0
2023-12-06_15:15:01 - 0
2023-12-06_15:15:01 - 0
2023-12-06_15:15:02 - 0
2023-12-06_15:15:02 - 0
2023-12-06_15:15:02 - 0
2023-12-06_15:15:02 - 0
2023-12-06_15:15:02 - 0
2023-12-06_15:15:03 - 0
2023-12-06_15:15:03 - 0
2023-12-06_15:15:03 - 0
2023-12-06_15:15:03 - 0
2023-12-06_15:15:03 - 0
2023-12-06_15:15:04 - 0
2023-12-06_15:15:04 - 0
2023-12-06_15:15:04 - 0
2023-12-06_15:15:04 - 0
2023-12-06_15:15:04 - 0
2023-12-06_15:15:05 - 0
2023-12-06_15:15:05 - 0
2023-12-06_15:15:05 - 0
2023-12-06_15:15:05 - 0
2023-12-06_15:15:05 - 0
2023-12-06_15:15:06 - 0
2023-12-06_15:15:06 - 0
2023-12-06_15:15:06 - 0
2023-12-06_15:15:06 - 0
2023-12-06_15:15:06 - 0
2023-12-06_15:15:36 - 97
2023-12-06_15:15:36 - 97
2023-12-06_15:15:36 - 97
2023-12-06_15:15:36 - 97
2023-12-06_15:15:36 - 97
2023-12-06_15:15:36 - 97
2023-12-06_15:15:37 - 0
2023-12-06_15:15:37 - 0
2023-12-06_15:15:37 - 0
2023-12-06_15:15:37 - 0
2023-12-06_15:15:37 - 0
2023-12-06_15:15:37 - 0
2023-12-06_15:15:38 - 96
2023-12-06_15:15:38 - 96
2023-12-06_15:15:38 - 96
2023-12-06_15:15:38 - 96
2023-12-06_15:15:38 - 96
2023-12-06_15:15:38 - 96
2023-12-06_15:15:39 - 96
2023-12-06_15:15:39 - 96
2023-12-06_15:15:39 - 96
2023-12-06_15:15:39 - 96
2023-12-06_15:15:39 - 96
2023-12-06_15:15:39 - 96
2023-12-06_15:15:40 - 95
2023-12-06_15:15:40 - 95
2023-12-06_15:15:40 - 95
2023-12-06_15:15:40 - 95
2023-12-06_15:15:40 - 95
2023-12-06_15:15:40 - 95
2023-12-06_15:15:41 - 95
2023-12-06_15:15:41 - 95
2023-12-06_15:15:41 - 95
2023-12-06_15:15:41 - 95
2023-12-06_15:15:41 - 95
2023-12-06_15:15:41 - 95
2023-12-06_15:15:42 - 97
2023-12-06_15:15:42 - 97
2023-12-06_15:15:42 - 97
2023-12-06_15:15:42 - 97
2023-12-06_15:15:42 - 97
2023-12-06_15:15:42 - 97
2023-12-06_15:15:47 - 100
2023-12-06_15:15:47 - 100
2023-12-06_15:15:47 - 100
2023-12-06_15:15:47 - 100
2023-12-06_15:15:47 - 100
2023-12-06_15:15:47 - 100
2023-12-06_15:15:48 - 99
2023-12-06_15:15:48 - 99
2023-12-06_15:15:48 - 99
2023-12-06_15:15:48 - 99
2023-12-06_15:15:48 - 99
2023-12-06_15:15:48 - 99
2023-12-06_15:15:48 - 99
2023-12-06_15:15:49 - 99
2023-12-06_15:15:49 - 99
2023-12-06_15:15:49 - 99
2023-12-06_15:15:49 - 99
2023-12-06_15:15:49 - 99
2023-12-06_15:15:49 - 99
2023-12-06_15:15:49 - 99
2023-12-06_15:15:50 - 99
2023-12-06_15:15:50 - 99
2023-12-06_15:15:50 - 99
2023-12-06_15:15:50 - 99
2023-12-06_15:15:50 - 99
2023-12-06_15:15:50 - 99
2023-12-06_15:15:50 - 99
2023-12-06_15:15:51 - 100
2023-12-06_15:15:51 - 100
2023-12-06_15:15:51 - 100
2023-12-06_15:15:51 - 100
2023-12-06_15:15:51 - 100
2023-12-06_15:15:51 - 100
2023-12-06_15:15:51 - 100
2023-12-06_15:15:52 - 101
2023-12-06_15:15:52 - 101
2023-12-06_15:15:52 - 101
2023-12-06_15:15:52 - 101
2023-12-06_15:15:52 - 101
2023-12-06_15:15:52 - 101
2023-12-06_15:15:52 - 101
2023-12-06_15:15:53 - 101
2023-12-06_15:15:53 - 101
2023-12-06_15:15:53 - 101
2023-12-06_15:15:53 - 101
2023-12-06_15:15:53 - 101
2023-12-06_15:15:53 - 101
2023-12-06_15:15:53 - 101
2023-12-06_15:15:54 - 101
2023-12-06_15:15:54 - 101
2023-12-06_15:15:54 - 101
2023-12-06_15:15:54 - 101
2023-12-06_15:15:54 - 101
2023-12-06_15:15:54 - 101
2023-12-06_15:15:54 - 101
2023-12-06_15:18:03 - 100
2023-12-06_15:18:03 - 100
2023-12-06_15:18:03 - 100
2023-12-06_15:18:03 - 100
2023-12-06_15:18:03 - 100
2023-12-06_15:18:03 - 100
2023-12-06_15:18:03 - 100
2023-12-06_15:18:03 - 100
2023-12-06_15:18:03 - 100
2023-12-06_15:18:03 - 100
2023-12-06_15:18:03 - 100
2023-12-06_15:18:03 - 100
2023-12-06_15:18:03 - 100
2023-12-06_15:18:03 - 100
2023-12-06_15:18:03 - 100
2023-12-06_15:18:03 - 100
2023-12-06_15:18:04 - 0
2023-12-06_15:18:04 - 0
2023-12-06_15:18:04 - 0
2023-12-06_15:18:04 - 0
2023-12-06_15:18:04 - 0
2023-12-06_15:18:04 - 0
2023-12-06_15:18:04 - 0
2023-12-06_15:18:04 - 0
2023-12-06_15:18:05 - 100
2023-12-06_15:18:05 - 100
2023-12-06_15:18:05 - 100
2023-12-06_15:18:05 - 100
2023-12-06_15:18:05 - 100
2023-12-06_15:18:05 - 100
2023-12-06_15:18:05 - 100
2023-12-06_15:18:05 - 100
2023-12-06_15:18:06 - 100
2023-12-06_15:18:06 - 100
2023-12-06_15:18:06 - 100
2023-12-06_15:18:06 - 100
2023-12-06_15:18:06 - 100
2023-12-06_15:18:06 - 100
2023-12-06_15:18:06 - 100
2023-12-06_15:18:06 - 100
2023-12-06_15:18:07 - 0
2023-12-06_15:18:07 - 0
2023-12-06_15:18:07 - 0
2023-12-06_15:18:07 - 0
2023-12-06_15:18:07 - 0
2023-12-06_15:18:07 - 0
2023-12-06_15:18:07 - 0
2023-12-06_15:18:07 - 0
2023-12-06_15:18:08 - 0
2023-12-06_15:18:08 - 0
2023-12-06_15:18:08 - 0
2023-12-06_15:18:08 - 0
2023-12-06_15:18:08 - 0
2023-12-06_15:18:08 - 0
2023-12-06_15:18:08 - 0
2023-12-06_15:18:08 - 0
2023-12-06_15:18:09 - 0
2023-12-06_15:18:09 - 0
2023-12-06_15:18:09 - 0
2023-12-06_15:18:09 - 0
2023-12-06_15:18:09 - 0
2023-12-06_15:18:09 - 0
2023-12-06_15:18:09 - 0
2023-12-06_15:18:09 - 0
2023-12-06_15:18:58 - 93
2023-12-06_15:18:58 - 93
2023-12-06_15:18:58 - 93
2023-12-06_15:18:58 - 93
2023-12-06_15:18:58 - 93
2023-12-06_15:18:58 - 93
2023-12-06_15:18:58 - 93
2023-12-06_15:18:58 - 93
2023-12-06_15:18:58 - 93
2023-12-06_15:18:59 - 93
2023-12-06_15:18:59 - 93
2023-12-06_15:18:59 - 93
2023-12-06_15:18:59 - 93
2023-12-06_15:18:59 - 93
2023-12-06_15:18:59 - 93
2023-12-06_15:18:59 - 93
2023-12-06_15:18:59 - 93
2023-12-06_15:18:59 - 93
2023-12-06_15:19:17 - 96
2023-12-06_15:19:17 - 96
2023-12-06_15:19:17 - 96
2023-12-06_15:19:17 - 96
2023-12-06_15:19:17 - 96
2023-12-06_15:19:17 - 96
2023-12-06_15:19:17 - 96
2023-12-06_15:19:17 - 96
2023-12-06_15:19:17 - 96
2023-12-06_15:19:17 - 96
2023-12-06_15:19:18 - 96
2023-12-06_15:19:18 - 96
2023-12-06_15:19:18 - 96
2023-12-06_15:19:18 - 96
2023-12-06_15:19:18 - 96
2023-12-06_15:19:18 - 96
2023-12-06_15:19:18 - 96
2023-12-06_15:19:18 - 96
2023-12-06_15:19:18 - 96
2023-12-06_15:19:18 - 96
2023-12-06_15:19:19 - 96
2023-12-06_15:19:19 - 96
2023-12-06_15:19:19 - 96
2023-12-06_15:19:19 - 96
2023-12-06_15:19:19 - 96
2023-12-06_15:19:19 - 96
2023-12-06_15:19:19 - 96
2023-12-06_15:19:19 - 96
2023-12-06_15:19:19 - 96
2023-12-06_15:19:19 - 96
2023-12-06_15:19:20 - 96
2023-12-06_15:19:20 - 96
2023-12-06_15:19:20 - 96
2023-12-06_15:19:20 - 96
2023-12-06_15:19:20 - 96
2023-12-06_15:19:20 - 96
2023-12-06_15:19:20 - 96
2023-12-06_15:19:20 - 96
2023-12-06_15:19:20 - 96
2023-12-06_15:19:20 - 96
2023-12-06_15:19:21 - 96
2023-12-06_15:19:21 - 96
2023-12-06_15:19:21 - 96
2023-12-06_15:19:21 - 96
2023-12-06_15:19:21 - 96
2023-12-06_15:19:21 - 96
2023-12-06_15:19:21 - 96
2023-12-06_15:19:21 - 96
2023-12-06_15:19:21 - 96
2023-12-06_15:19:21 - 96
2023-12-06_15:19:22 - 96
2023-12-06_15:19:22 - 96
2023-12-06_15:19:22 - 96
2023-12-06_15:19:22 - 96
2023-12-06_15:19:22 - 96
2023-12-06_15:19:22 - 96
2023-12-06_15:19:22 - 96
2023-12-06_15:19:22 - 96
2023-12-06_15:19:22 - 96
2023-12-06_15:19:22 - 96
2023-12-06_15:19:23 - 96
2023-12-06_15:19:23 - 96
2023-12-06_15:19:23 - 96
2023-12-06_15:19:23 - 96
2023-12-06_15:19:23 - 96
2023-12-06_15:19:23 - 96
2023-12-06_15:19:23 - 96
2023-12-06_15:19:23 - 96
2023-12-06_15:19:23 - 96
2023-12-06_15:19:23 - 96
2023-12-06_15:19:32 - 97
2023-12-06_15:19:32 - 97
2023-12-06_15:19:32 - 97
2023-12-06_15:19:32 - 97
2023-12-06_15:19:32 - 97
2023-12-06_15:19:32 - 97
2023-12-06_15:19:32 - 97
2023-12-06_15:19:32 - 97
2023-12-06_15:19:32 - 97
2023-12-06_15:19:32 - 97
2023-12-06_15:19:32 - 97
2023-12-06_15:19:33 - 98
2023-12-06_15:19:33 - 98
2023-12-06_15:19:33 - 98
2023-12-06_15:19:33 - 98
2023-12-06_15:19:33 - 98
2023-12-06_15:19:33 - 98
2023-12-06_15:19:33 - 98
2023-12-06_15:19:33 - 98
2023-12-06_15:19:33 - 98
2023-12-06_15:19:33 - 98
2023-12-06_15:19:33 - 98
2023-12-06_15:19:34 - 100
2023-12-06_15:19:34 - 100
2023-12-06_15:19:34 - 100
2023-12-06_15:19:34 - 100
2023-12-06_15:19:34 - 100
2023-12-06_15:19:34 - 100
2023-12-06_15:19:34 - 100
2023-12-06_15:19:34 - 100
2023-12-06_15:19:34 - 100
2023-12-06_15:19:34 - 100
2023-12-06_15:19:34 - 100
2023-12-06_15:19:35 - 100
2023-12-06_15:19:35 - 100
2023-12-06_15:19:35 - 100
2023-12-06_15:19:35 - 100
2023-12-06_15:19:35 - 100
2023-12-06_15:19:35 - 100
2023-12-06_15:19:35 - 100
2023-12-06_15:19:35 - 100
2023-12-06_15:19:35 - 100
2023-12-06_15:19:35 - 100
2023-12-06_15:19:35 - 100
2023-12-06_15:19:36 - 100
2023-12-06_15:19:36 - 100
2023-12-06_15:19:36 - 100
2023-12-06_15:19:36 - 100
2023-12-06_15:19:36 - 100
2023-12-06_15:19:36 - 100
2023-12-06_15:19:36 - 100
2023-12-06_15:19:36 - 100
2023-12-06_15:19:36 - 100
2023-12-06_15:19:36 - 100
2023-12-06_15:19:36 - 100
2023-12-06_15:19:37 - 100
2023-12-06_15:19:37 - 100
2023-12-06_15:19:37 - 100
2023-12-06_15:19:37 - 100
2023-12-06_15:19:37 - 100
2023-12-06_15:19:37 - 100
2023-12-06_15:19:37 - 100
2023-12-06_15:19:37 - 100
2023-12-06_15:19:37 - 100
2023-12-06_15:19:37 - 100
2023-12-06_15:19:37 - 100
2023-12-06_15:19:38 - 99
2023-12-06_15:19:38 - 99
2023-12-06_15:19:38 - 99
2023-12-06_15:19:38 - 99
2023-12-06_15:19:38 - 99
2023-12-06_15:19:38 - 99
2023-12-06_15:19:38 - 99
2023-12-06_15:19:38 - 99
2023-12-06_15:19:38 - 99
2023-12-06_15:19:38 - 99
2023-12-06_15:19:38 - 99
2023-12-06_15:21:01 - 0
2023-12-06_15:21:01 - 0
2023-12-06_15:21:01 - 0
2023-12-06_15:21:01 - 0
2023-12-06_15:21:01 - 0
2023-12-06_15:21:01 - 0
2023-12-06_15:21:01 - 0
2023-12-06_15:21:01 - 0
2023-12-06_15:21:01 - 0
2023-12-06_15:21:02 - 0
2023-12-06_15:21:02 - 0
2023-12-06_15:21:02 - 0
2023-12-06_15:21:02 - 0
2023-12-06_15:21:02 - 0
2023-12-06_15:21:02 - 0
2023-12-06_15:21:02 - 0
2023-12-06_15:21:02 - 0
2023-12-06_15:21:02 - 0
2023-12-06_15:21:02 - 0
2023-12-06_15:21:02 - 0
2023-12-06_15:21:02 - 0
2023-12-06_15:21:02 - 0
2023-12-06_15:21:02 - 0
2023-12-06_15:21:02 - 0
2023-12-06_15:21:02 - 0
2023-12-06_15:21:02 - 0
2023-12-06_15:21:02 - 0
2023-12-06_15:21:02 - 0
2023-12-06_15:21:02 - 0
2023-12-06_15:21:02 - 0
2023-12-06_15:21:02 - 0
2023-12-06_15:21:02 - 0
2023-12-06_15:21:02 - 0
2023-12-06_15:21:02 - 0
2023-12-06_15:21:02 - 0
2023-12-06_15:21:02 - 0
2023-12-06_15:21:03 - 0
2023-12-06_15:21:03 - 0
2023-12-06_15:21:03 - 0
2023-12-06_15:21:03 - 0
2023-12-06_15:21:03 - 0
2023-12-06_15:21:03 - 0
2023-12-06_15:21:03 - 0
2023-12-06_15:21:03 - 0
2023-12-06_15:21:03 - 0
2023-12-06_15:21:03 - 0
2023-12-06_15:21:03 - 0
2023-12-06_15:21:03 - 0
2023-12-06_15:21:04 - 0
2023-12-06_15:21:04 - 0
2023-12-06_15:21:04 - 0
2023-12-06_15:21:05 - 0
2023-12-06_15:21:04 - 0
2023-12-06_15:21:04 - 0
2023-12-06_15:21:05 - 0
2023-12-06_15:21:04 - 0
2023-12-06_15:21:04 - 0
2023-12-06_15:21:04 - 0
2023-12-06_15:21:05 - 0
2023-12-06_15:21:05 - 0
2023-12-06_15:21:05 - 93
2023-12-06_15:21:05 - 93
2023-12-06_15:21:05 - 93
2023-12-06_15:21:05 - 93
2023-12-06_15:21:05 - 93
2023-12-06_15:21:05 - 93
2023-12-06_15:21:06 - 93
2023-12-06_15:21:06 - 93
2023-12-06_15:21:06 - 93
2023-12-06_15:21:06 - 93
2023-12-06_15:21:06 - 93
2023-12-06_15:21:06 - 93
2023-12-06_15:21:06 - 94
2023-12-06_15:21:06 - 94
2023-12-06_15:21:06 - 94
2023-12-06_15:21:07 - 94
2023-12-06_15:21:07 - 94
2023-12-06_15:21:07 - 94
2023-12-06_15:21:07 - 94
2023-12-06_15:21:07 - 94
2023-12-06_15:21:07 - 94
2023-12-06_15:21:07 - 94
2023-12-06_15:21:07 - 94
2023-12-06_15:21:07 - 94
2023-12-06_15:21:07 - 95
2023-12-06_15:21:07 - 95
2023-12-06_15:21:07 - 95
2023-12-06_15:21:07 - 95
2023-12-06_15:21:07 - 95
2023-12-06_15:21:07 - 95
2023-12-06_15:21:07 - 95
2023-12-06_15:21:08 - 95
2023-12-06_15:21:08 - 95
2023-12-06_15:21:08 - 95
2023-12-06_15:21:08 - 95
2023-12-06_15:21:08 - 95
2023-12-06_15:21:09 - 96
2023-12-06_15:21:10 - 96
2023-12-06_15:21:10 - 96
2023-12-06_15:21:10 - 96
2023-12-06_15:21:10 - 96
2023-12-06_15:21:10 - 96
2023-12-06_15:21:10 - 96
2023-12-06_15:21:10 - 96
2023-12-06_15:21:10 - 96
2023-12-06_15:21:10 - 96
2023-12-06_15:21:10 - 96
2023-12-06_15:21:10 - 96
2023-12-06_15:21:10 - 96
2023-12-06_15:21:10 - 96
2023-12-06_15:21:10 - 96
2023-12-06_15:21:10 - 96
2023-12-06_15:21:10 - 96
2023-12-06_15:21:10 - 96
2023-12-06_15:21:10 - 96
2023-12-06_15:21:10 - 96
2023-12-06_15:21:10 - 96
2023-12-06_15:21:10 - 96
2023-12-06_15:21:10 - 96
2023-12-06_15:21:10 - 96
2023-12-06_15:21:10 - 96
2023-12-06_15:21:10 - 96
2023-12-06_15:23:23 - 99
2023-12-06_15:23:23 - 99
2023-12-06_15:23:23 - 99
2023-12-06_15:23:23 - 99
2023-12-06_15:23:23 - 99
2023-12-06_15:23:23 - 99
2023-12-06_15:23:23 - 99
2023-12-06_15:23:23 - 99
2023-12-06_15:23:23 - 99
2023-12-06_15:23:23 - 99
2023-12-06_15:23:23 - 99
2023-12-06_15:23:23 - 99
2023-12-06_15:23:23 - 99
2023-12-06_15:23:23 - 99
2023-12-06_15:23:23 - 99
2023-12-06_15:23:23 - 99
2023-12-06_15:23:23 - 99
2023-12-06_15:23:23 - 99
2023-12-06_15:23:23 - 99
2023-12-06_15:23:23 - 99
2023-12-06_15:23:23 - 99
2023-12-06_15:23:23 - 99
2023-12-06_15:23:23 - 99
2023-12-06_15:23:23 - 99
2023-12-06_15:23:23 - 99
2023-12-06_15:23:23 - 99
2023-12-06_15:23:23 - 99
2023-12-06_15:23:23 - 99
2023-12-06_15:23:24 - 98
2023-12-06_15:23:24 - 98
2023-12-06_15:23:24 - 98
2023-12-06_15:23:24 - 98
2023-12-06_15:23:24 - 98
2023-12-06_15:23:24 - 98
2023-12-06_15:23:24 - 98
2023-12-06_15:23:24 - 98
2023-12-06_15:23:24 - 98
2023-12-06_15:23:24 - 98
2023-12-06_15:23:24 - 98
2023-12-06_15:23:24 - 98
2023-12-06_15:23:24 - 98
2023-12-06_15:23:24 - 98
2023-12-06_15:23:25 - 97
2023-12-06_15:23:25 - 97
2023-12-06_15:23:25 - 97
2023-12-06_15:23:25 - 97
2023-12-06_15:23:25 - 97
2023-12-06_15:23:25 - 97
2023-12-06_15:23:25 - 97
2023-12-06_15:23:25 - 97
2023-12-06_15:23:25 - 97
2023-12-06_15:23:25 - 97
2023-12-06_15:23:25 - 97
2023-12-06_15:23:25 - 97
2023-12-06_15:23:25 - 97
2023-12-06_15:23:25 - 97
2023-12-06_15:26:22 - 90
2023-12-06_15:26:22 - 90
2023-12-06_15:26:22 - 90
2023-12-06_15:26:22 - 90
2023-12-06_15:26:22 - 90
2023-12-06_15:26:22 - 90
2023-12-06_15:26:22 - 90
2023-12-06_15:26:22 - 90
2023-12-06_15:26:22 - 90
2023-12-06_15:26:22 - 90
2023-12-06_15:26:22 - 90
2023-12-06_15:26:22 - 0
2023-12-06_15:26:22 - 90
2023-12-06_15:26:22 - 90
2023-12-06_15:26:22 - 0
2023-12-06_15:26:22 - 90
2023-12-06_15:26:22 - 0
2023-12-06_15:26:22 - 90
2023-12-06_15:26:22 - 0
2023-12-06_15:26:22 - 0
2023-12-06_15:26:22 - 0
2023-12-06_15:26:22 - 0
2023-12-06_15:26:22 - 0
2023-12-06_15:26:22 - 0
2023-12-06_15:26:22 - 0
2023-12-06_15:26:22 - 0
2023-12-06_15:26:22 - 0
2023-12-06_15:26:22 - 0
2023-12-06_15:26:22 - 0
2023-12-06_15:26:22 - 0
2023-12-06_15:26:23 - 91
2023-12-06_15:26:23 - 91
2023-12-06_15:26:23 - 91
2023-12-06_15:26:23 - 91
2023-12-06_15:26:23 - 91
2023-12-06_15:26:23 - 91
2023-12-06_15:26:23 - 91
2023-12-06_15:26:23 - 91
2023-12-06_15:26:23 - 91
2023-12-06_15:26:23 - 91
2023-12-06_15:26:23 - 91
2023-12-06_15:26:23 - 91
2023-12-06_15:26:23 - 91
2023-12-06_15:26:23 - 91
2023-12-06_15:26:23 - 91
2023-12-06_15:26:24 - 91
2023-12-06_15:26:24 - 91
2023-12-06_15:26:24 - 91
2023-12-06_15:26:24 - 91
2023-12-06_15:26:24 - 91
2023-12-06_15:26:24 - 91
2023-12-06_15:26:24 - 91
2023-12-06_15:26:24 - 91
2023-12-06_15:26:24 - 91
2023-12-06_15:26:24 - 91
2023-12-06_15:26:24 - 91
2023-12-06_15:26:24 - 91
2023-12-06_15:26:24 - 91
2023-12-06_15:26:24 - 91
2023-12-06_15:26:24 - 91
2023-12-06_15:26:25 - 91
2023-12-06_15:26:25 - 91
2023-12-06_15:26:25 - 91
2023-12-06_15:26:25 - 91
2023-12-06_15:26:25 - 91
2023-12-06_15:26:25 - 91
2023-12-06_15:26:25 - 91
2023-12-06_15:26:25 - 91
2023-12-06_15:26:25 - 91
2023-12-06_15:26:25 - 91
2023-12-06_15:26:25 - 91
2023-12-06_15:26:25 - 91
2023-12-06_15:26:25 - 91
2023-12-06_15:26:25 - 91
2023-12-06_15:26:25 - 91
2023-12-06_15:26:26 - 90
2023-12-06_15:26:26 - 90
2023-12-06_15:26:26 - 90
2023-12-06_15:26:26 - 90
2023-12-06_15:26:26 - 90
2023-12-06_15:26:26 - 90
2023-12-06_15:26:26 - 90
2023-12-06_15:26:26 - 90
2023-12-06_15:26:26 - 90
2023-12-06_15:26:26 - 90
2023-12-06_15:26:26 - 90
2023-12-06_15:26:26 - 90
2023-12-06_15:26:26 - 90
2023-12-06_15:26:26 - 90
2023-12-06_15:26:26 - 90
2023-12-06_15:26:27 - 90
2023-12-06_15:26:27 - 90
2023-12-06_15:26:27 - 90
2023-12-06_15:26:27 - 90
2023-12-06_15:26:27 - 90
2023-12-06_15:26:27 - 90
2023-12-06_15:26:27 - 90
2023-12-06_15:26:27 - 90
2023-12-06_15:26:27 - 90
2023-12-06_15:26:27 - 90
2023-12-06_15:26:27 - 90
2023-12-06_15:26:27 - 90
2023-12-06_15:26:27 - 90
2023-12-06_15:26:27 - 90
2023-12-06_15:26:27 - 90
2023-12-06_15:26:28 - 92
2023-12-06_15:26:28 - 92
2023-12-06_15:26:28 - 92
2023-12-06_15:26:28 - 92
2023-12-06_15:26:28 - 92
2023-12-06_15:26:28 - 92
2023-12-06_15:26:28 - 92
2023-12-06_15:26:28 - 92
2023-12-06_15:26:28 - 92
2023-12-06_15:26:28 - 92
2023-12-06_15:26:28 - 92
2023-12-06_15:26:28 - 92
2023-12-06_15:26:28 - 92
2023-12-06_15:26:28 - 92
2023-12-06_15:26:28 - 92
2023-12-06_15:26:29 - 93
2023-12-06_15:26:29 - 93
2023-12-06_15:26:29 - 93
2023-12-06_15:26:29 - 93
2023-12-06_15:26:29 - 93
2023-12-06_15:26:29 - 93
2023-12-06_15:26:29 - 93
2023-12-06_15:26:29 - 93
2023-12-06_15:26:29 - 93
2023-12-06_15:26:29 - 93
2023-12-06_15:26:29 - 93
2023-12-06_15:26:29 - 93
2023-12-06_15:26:29 - 93
2023-12-06_15:26:29 - 93
2023-12-06_15:26:29 - 93
2023-12-06_15:26:30 - 93
2023-12-06_15:26:30 - 93
2023-12-06_15:26:30 - 93
2023-12-06_15:26:30 - 93
2023-12-06_15:26:30 - 93
2023-12-06_15:26:30 - 93
2023-12-06_15:26:30 - 93
2023-12-06_15:26:30 - 93
2023-12-06_15:26:30 - 93
2023-12-06_15:26:30 - 93
2023-12-06_15:26:30 - 93
2023-12-06_15:26:30 - 93
2023-12-06_15:26:30 - 93
2023-12-06_15:26:30 - 93
2023-12-06_15:26:30 - 93
2023-12-06_15:26:31 - 93
2023-12-06_15:26:31 - 93
2023-12-06_15:26:31 - 93
2023-12-06_15:26:31 - 93
2023-12-06_15:26:31 - 93
2023-12-06_15:26:31 - 93
2023-12-06_15:26:31 - 93
2023-12-06_15:26:31 - 93
2023-12-06_15:26:31 - 93
2023-12-06_15:26:31 - 93
2023-12-06_15:26:31 - 93
2023-12-06_15:26:31 - 93
2023-12-06_15:26:31 - 93
2023-12-06_15:26:31 - 93
2023-12-06_15:26:31 - 93
2023-12-06_15:26:32 - 94
2023-12-06_15:26:32 - 94
2023-12-06_15:26:32 - 94
2023-12-06_15:26:32 - 94
2023-12-06_15:26:32 - 94
2023-12-06_15:26:32 - 94
2023-12-06_15:26:32 - 94
2023-12-06_15:26:32 - 94
2023-12-06_15:26:32 - 94
2023-12-06_15:26:32 - 94
2023-12-06_15:26:32 - 94
2023-12-06_15:26:32 - 94
2023-12-06_15:26:32 - 94
2023-12-06_15:26:32 - 94
2023-12-06_15:26:32 - 94
2023-12-06_15:26:33 - 94
2023-12-06_15:26:33 - 94
2023-12-06_15:26:33 - 94
2023-12-06_15:26:33 - 94
2023-12-06_15:26:33 - 94
2023-12-06_15:26:33 - 94
2023-12-06_15:26:33 - 94
2023-12-06_15:26:33 - 94
2023-12-06_15:26:33 - 94
2023-12-06_15:26:33 - 94
2023-12-06_15:26:33 - 94
2023-12-06_15:26:33 - 94
2023-12-06_15:26:33 - 94
2023-12-06_15:26:33 - 94
2023-12-06_15:26:33 - 94
2023-12-06_15:26:34 - 95
2023-12-06_15:26:34 - 95
2023-12-06_15:26:34 - 95
2023-12-06_15:26:34 - 95
2023-12-06_15:26:34 - 95
2023-12-06_15:26:34 - 95
2023-12-06_15:26:34 - 95
2023-12-06_15:26:34 - 95
2023-12-06_15:26:34 - 95
2023-12-06_15:26:34 - 95
2023-12-06_15:26:34 - 95
2023-12-06_15:26:34 - 95
2023-12-06_15:26:34 - 95
2023-12-06_15:26:34 - 95
2023-12-06_15:26:34 - 95
2023-12-06_15:26:35 - 95
2023-12-06_15:26:35 - 95
2023-12-06_15:26:35 - 95
2023-12-06_15:26:35 - 95
2023-12-06_15:26:35 - 95
2023-12-06_15:26:35 - 95
2023-12-06_15:26:35 - 95
2023-12-06_15:26:35 - 95
2023-12-06_15:26:35 - 95
2023-12-06_15:26:35 - 95
2023-12-06_15:26:35 - 95
2023-12-06_15:26:35 - 95
2023-12-06_15:26:35 - 95
2023-12-06_15:26:35 - 95
2023-12-06_15:26:35 - 95
2023-12-06_15:26:36 - 94
2023-12-06_15:26:36 - 94
2023-12-06_15:26:36 - 94
2023-12-06_15:26:36 - 94
2023-12-06_15:26:36 - 94
2023-12-06_15:26:36 - 94
2023-12-06_15:26:36 - 94
2023-12-06_15:26:36 - 94
2023-12-06_15:26:36 - 94
2023-12-06_15:26:36 - 94
2023-12-06_15:26:36 - 94
2023-12-06_15:26:36 - 94
2023-12-06_15:26:36 - 94
2023-12-06_15:26:36 - 94
2023-12-06_15:26:36 - 94
2023-12-06_15:26:37 - 94
2023-12-06_15:26:37 - 94
2023-12-06_15:26:37 - 94
2023-12-06_15:26:37 - 94
2023-12-06_15:26:37 - 94
2023-12-06_15:26:37 - 94
2023-12-06_15:26:37 - 94
2023-12-06_15:26:37 - 94
2023-12-06_15:26:37 - 94
2023-12-06_15:26:37 - 94
2023-12-06_15:26:37 - 94
2023-12-06_15:26:37 - 94
2023-12-06_15:26:37 - 94
2023-12-06_15:26:37 - 94
2023-12-06_15:26:37 - 94
2023-12-06_15:26:38 - 93
2023-12-06_15:26:38 - 93
2023-12-06_15:26:38 - 93
2023-12-06_15:26:38 - 93
2023-12-06_15:26:38 - 93
2023-12-06_15:26:38 - 93
2023-12-06_15:26:38 - 93
2023-12-06_15:26:38 - 93
2023-12-06_15:26:38 - 93
2023-12-06_15:26:38 - 93
2023-12-06_15:26:38 - 93
2023-12-06_15:26:38 - 93
2023-12-06_15:26:38 - 93
2023-12-06_15:26:38 - 93
2023-12-06_15:26:38 - 93
2023-12-06_15:26:39 - 93
2023-12-06_15:26:39 - 93
2023-12-06_15:26:39 - 93
2023-12-06_15:26:39 - 93
2023-12-06_15:26:39 - 93
2023-12-06_15:26:39 - 93
2023-12-06_15:26:39 - 93
2023-12-06_15:26:39 - 93
2023-12-06_15:26:39 - 93
2023-12-06_15:26:39 - 93
2023-12-06_15:26:39 - 93
2023-12-06_15:26:39 - 93
2023-12-06_15:26:39 - 93
2023-12-06_15:26:39 - 93
2023-12-06_15:26:39 - 93
2023-12-06_15:26:40 - 93
2023-12-06_15:26:40 - 93
2023-12-06_15:26:40 - 93
2023-12-06_15:26:40 - 93
2023-12-06_15:26:40 - 93
2023-12-06_15:26:40 - 93
2023-12-06_15:26:40 - 93
2023-12-06_15:26:40 - 93
2023-12-06_15:26:40 - 93
2023-12-06_15:26:40 - 93
2023-12-06_15:26:40 - 93
2023-12-06_15:26:40 - 93
2023-12-06_15:26:40 - 93
2023-12-06_15:26:40 - 93
2023-12-06_15:26:40 - 93
2023-12-06_15:26:41 - 94
2023-12-06_15:26:41 - 94
2023-12-06_15:26:41 - 94
2023-12-06_15:26:41 - 94
2023-12-06_15:26:41 - 94
2023-12-06_15:26:41 - 94
2023-12-06_15:26:41 - 94
2023-12-06_15:26:41 - 94
2023-12-06_15:26:41 - 94
2023-12-06_15:26:41 - 94
2023-12-06_15:26:41 - 94
2023-12-06_15:26:41 - 94
2023-12-06_15:26:41 - 94
2023-12-06_15:26:41 - 94
2023-12-06_15:26:41 - 94
2023-12-06_15:26:42 - 94
2023-12-06_15:26:42 - 94
2023-12-06_15:26:42 - 94
2023-12-06_15:26:42 - 94
2023-12-06_15:26:42 - 94
2023-12-06_15:26:42 - 94
2023-12-06_15:26:42 - 94
2023-12-06_15:26:42 - 94
2023-12-06_15:26:42 - 94
2023-12-06_15:26:42 - 94
2023-12-06_15:26:42 - 94
2023-12-06_15:26:42 - 94
2023-12-06_15:26:42 - 94
2023-12-06_15:26:42 - 94
2023-12-06_15:26:42 - 94
2023-12-06_15:26:43 - 94
2023-12-06_15:26:43 - 94
2023-12-06_15:26:43 - 94
2023-12-06_15:26:43 - 94
2023-12-06_15:26:43 - 94
2023-12-06_15:26:43 - 94
2023-12-06_15:26:43 - 94
2023-12-06_15:26:43 - 94
2023-12-06_15:26:43 - 94
2023-12-06_15:26:43 - 94
2023-12-06_15:26:43 - 94
2023-12-06_15:26:43 - 94
2023-12-06_15:26:43 - 94
2023-12-06_15:26:43 - 94
2023-12-06_15:26:43 - 94
